# Time    cumulative_phase    amplitude    omega
-100.000000000000000 1.692467325175004 0.000004348255258 -0.001185573985900
-99.800870000000003 1.692231241827191 0.000004355840614 -0.001188641912308
-99.599840000000000 1.691993936647008 0.000004363486987 -0.001183550978073
-99.400700000000001 1.691759880814664 0.000004371050204 -0.001178443117379
-99.199680000000001 1.691524609891080 0.000004378674405 -0.001173419379472
-99.000540000000001 1.691292554812595 0.000004386215818 -0.001168387774129
-98.799509999999998 1.691059287776156 0.000004393818151 -0.001163440755939
-98.600380000000001 1.690829202897135 0.000004401337977 -0.001158475967111
-98.399349999999998 1.690597913137494 0.000004408918543 -0.001153585490038
-98.200209999999998 1.690369775939873 0.000004416416832 -0.001148678406023
-97.999179999999996 1.690140440475511 0.000004423975754 -0.001143855331580
-97.800039999999996 1.689914224115518 0.000004431452695 -0.001133641406580
-97.600899999999996 1.689688956448927 0.000004438918881 -0.001134245170748
-97.399860000000004 1.689462499633815 0.000004446445223 -0.001129503055808
-97.200720000000004 1.689239120561921 0.000004453889673 -0.001124734830726
-96.999690000000001 1.689014562740131 0.000004461393977 -0.001120089106507
-96.800529999999995 1.688793033874363 0.000004468817058 -0.001115443021122
-96.599469999999997 1.688570326402538 0.000004476299871 -0.001110811980562
-96.400310000000005 1.688350641894985 0.000004483700936 -0.001106144815464
-96.199259999999995 1.688129793168332 0.000004491161136 -0.001101547809158
-96.000090000000000 1.687911939464509 0.000004498539623 -0.001091768108867
-95.800929999999994 1.687694985601295 0.000004505906893 -0.001092440269564
-95.599860000000007 1.687476864202753 0.000004513333098 -0.001087952468842
-95.400679999999994 1.687261697651053 0.000004520677597 -0.001083414214734
-95.199610000000007 1.687045383657593 0.000004528080178 -0.001078930036588
-95.000429999999994 1.686832002974682 0.000004535401054 -0.001074418857491
-94.799359999999993 1.686617485603409 0.000004542779549 -0.001070001286375
-94.600170000000006 1.686405864262370 0.000004550076614 -0.001065563109837
-94.399090000000001 1.686193114439285 0.000004557430824 -0.001061165899223
-94.199900000000000 1.685983244331346 0.000004564703282 -0.001051759051322
-94.000720000000001 1.685774240879505 0.000004571963289 -0.001052390085477
-93.799639999999997 1.685564119455903 0.000004579279677 -0.001048087538683
-93.600449999999995 1.685356829536349 0.000004586514524 -0.001043761407147
-93.399349999999998 1.685148431037893 0.000004593805330 -0.001039469333543
-93.200159999999997 1.684942850479572 0.000004601014282 -0.001035157711883
-92.999070000000003 1.684736169127558 0.000004608278541 -0.001030900123846
-92.799869999999999 1.684532284196250 0.000004615460899 -0.001021805205446
-92.600669999999994 1.684329224986437 0.000004622630032 -0.001022479171592
-92.399559999999994 1.684125071641371 0.000004629853828 -0.001018297184151
-92.200360000000003 1.683923677949877 0.000004636995628 -0.001014080871426
-91.999250000000004 1.683721203793517 0.000004644191318 -0.001009920039710
-91.800039999999996 1.683521467194863 0.000004651304955 -0.001001007745285
-91.600830000000002 1.683322542448880 0.000004658404549 -0.001001668946402
-91.399709999999999 1.683122542520268 0.000004665557391 -0.000997584308349
-91.200490000000002 1.682925244522237 0.000004672628083 -0.000993459178868
-90.999369999999999 1.682726887467693 0.000004679751130 -0.000989386778112
-90.800150000000002 1.682531211343986 0.000004686791962 -0.000980665580195
-90.600920000000002 1.682336327593724 0.000004693817895 -0.000981318248918
-90.399789999999996 1.682140391538172 0.000004700895515 -0.000977316288215
-90.200550000000007 1.681947101608779 0.000004707890803 -0.000973282592236
-89.999420000000001 1.681752772012988 0.000004714936811 -0.000969299140000
-89.800179999999997 1.681561068533283 0.000004721900415 -0.000960758949167
-89.600939999999994 1.681370140153893 0.000004728848227 -0.000961408054287
-89.399789999999996 1.681178178161583 0.000004735845979 -0.000957500436561
-89.200540000000004 1.680988806030028 0.000004742761195 -0.000953553497928
-88.999399999999994 1.680798415945498 0.000004749725398 -0.000949658480539
-88.800150000000002 1.680610595043569 0.000004756606981 -0.000941289594860
-88.600890000000007 1.680423537951449 0.000004763471805 -0.000941921279489
-88.399730000000005 1.680235465474799 0.000004770384653 -0.000938095968296
-88.200460000000007 1.680049931851116 0.000004777214743 -0.000934222637000
-87.999300000000005 1.679863401967388 0.000004784091966 -0.000930404170749
-87.800039999999996 1.679679389086073 0.000004790886337 -0.000922213208005
-87.600769999999997 1.679496121335168 0.000004797662874 -0.000922822966517
-87.399600000000007 1.679311865611428 0.000004804485418 -0.000919059661552
-87.200329999999994 1.679130096634358 0.000004811224958 -0.000915272347011
-86.999160000000003 1.678947349246507 0.000004818009631 -0.000911530780480
-86.799890000000005 1.678767070385724 0.000004824711207 -0.000903506065245
-86.600610000000003 1.678587518920963 0.000004831393783 -0.000904099740840
-86.399429999999995 1.678407003622937 0.000004838120249 -0.000900406804771
-86.200149999999994 1.678228922906895 0.000004844763431 -0.000892463848365
-86.000870000000006 1.678051570970687 0.000004851386643 -0.000893031722401
-85.799689999999998 1.677873264093132 0.000004858052504 -0.000889398595003
-85.600399999999993 1.677697359086241 0.000004864635060 -0.000885744123631
-85.399220000000000 1.677520507638454 0.000004871259279 -0.000882120836627
-85.199929999999995 1.677346045641846 0.000004877799925 -0.000874330071498
-85.000649999999993 1.677172296944179 0.000004884319317 -0.000874887195556
-84.799459999999996 1.676997613067344 0.000004890879113 -0.000871324230049
-84.600160000000002 1.676825283356320 0.000004897355214 -0.000863639750679
-84.400869999999998 1.676653659900239 0.000004903809263 -0.000864181794214
-84.199680000000001 1.676481114314956 0.000004910302112 -0.000860646592716
-84.000389999999996 1.676310898788224 0.000004916710978 -0.000857108544060
-83.799189999999996 1.676139762266199 0.000004923157846 -0.000853618321206
-83.599890000000002 1.675970936755620 0.000004929520586 -0.000846080896123
-83.400589999999994 1.675802802088509 0.000004935859830 -0.000846609240891
-83.199389999999994 1.675633766159343 0.000004942235306 -0.000843141636695
-83.000090000000000 1.675467012500279 0.000004948526482 -0.000835707631777
-82.800780000000003 1.675300937237911 0.000004954793394 -0.000836238102928
-82.599580000000003 1.675133972313407 0.000004961094910 -0.000832806187267
-82.400270000000006 1.674969263845770 0.000004967311805 -0.000829363849733
-82.199070000000006 1.674803669866612 0.000004973562159 -0.000825962485502
-81.999759999999995 1.674640316026294 0.000004979727879 -0.000818660254783
-81.800439999999995 1.674477630233542 0.000004985867628 -0.000819177883683
-81.599230000000006 1.674314070242339 0.000004992039089 -0.000815816711099
-81.399919999999995 1.674152723070180 0.000004998125482 -0.000808587004255
-81.200599999999994 1.673992042382024 0.000005004184833 -0.000809097664479
-80.999390000000005 1.673830491834325 0.000005010274222 -0.000805789087866
-80.800070000000005 1.673671128819890 0.000005016278259 -0.000798651243402
-80.600750000000005 1.673512420990127 0.000005022254137 -0.000799134219774
-80.399529999999999 1.673352865625523 0.000005028258006 -0.000795834953132
-80.200209999999998 1.673195471761693 0.000005034176280 -0.000788797089747
-80.000879999999995 1.673038719296561 0.000005040065335 -0.000789280805954
-79.799660000000003 1.672881132787913 0.000005045980398 -0.000786016106326
-79.600340000000003 1.672725680522055 0.000005051809454 -0.000782736169109
-79.399109999999993 1.672569400281204 0.000005057663101 -0.000779517614445
-79.199780000000004 1.672415229836926 0.000005063430639 -0.000772621700116
-79.000460000000004 1.672261695962916 0.000005069166882 -0.000773080151910
-78.799229999999994 1.672107342935627 0.000005074925591 -0.000769885533018
-78.599900000000005 1.671955081350536 0.000005080597684 -0.000763050391956
-78.400570000000002 1.671803450486526 0.000005086237242 -0.000763504367252
-78.199340000000007 1.671651008101234 0.000005091897083 -0.000760353674222
-78.000010000000003 1.671500632032231 0.000005097469913 -0.000753603091030
-77.800669999999997 1.671350878134201 0.000005103008825 -0.000754041597358
-77.599440000000001 1.671200327425667 0.000005108565617 -0.000750908164701
-77.400109999999998 1.671051821448527 0.000005114035065 -0.000744239029576
-77.200770000000006 1.670903926789748 0.000005119469185 -0.000744678617542
-76.999539999999996 1.670755245742305 0.000005124918717 -0.000741584919776
-76.800200000000004 1.670608583179598 0.000005130280375 -0.000734980263246
-76.600870000000000 1.670462532502665 0.000005135605250 -0.000735402785305
-76.399630000000002 1.670315701666323 0.000005140943033 -0.000732354323232
-76.200289999999995 1.670170865069894 0.000005146192458 -0.000729281617586
-75.999049999999997 1.670025257969303 0.000005151452957 -0.000726251830699
-75.799719999999994 1.669881628015800 0.000005156624744 -0.000719779713441
-75.600380000000001 1.669738598500628 0.000005161757170 -0.000720188682239
-75.399140000000003 1.669594805671212 0.000005166897888 -0.000717200951838
-75.199799999999996 1.669452966049549 0.000005171949371 -0.000710812129653
-75.000460000000004 1.669311717632456 0.000005176959745 -0.000711198902987
-74.799220000000005 1.669169723974446 0.000005181975526 -0.000708238160192
-74.599869999999996 1.669029654702778 0.000005186901541 -0.000701941524608
-74.400530000000003 1.668890168742855 0.000005191784659 -0.000702333914816
-74.199290000000005 1.668749943197864 0.000005196670149 -0.000699393093443
-73.999949999999998 1.668611628449461 0.000005201465225 -0.000693157916472
-73.800600000000003 1.668473886126050 0.000005206215600 -0.000693552494633
-73.599360000000004 1.668335414232948 0.000005210965174 -0.000690657778707
-73.400019999999998 1.668198824759102 0.000005215623661 -0.000684502529644
-73.200670000000002 1.668062804255492 0.000005220235437 -0.000684867252474
-72.999430000000004 1.667926069527131 0.000005224843087 -0.000682010092837
-72.800079999999994 1.667791186915919 0.000005229359007 -0.000675948431221
-72.600740000000002 1.667656866304913 0.000005233826157 -0.000676323548148
-72.399490000000000 1.667521834299633 0.000005238285647 -0.000673493162249
-72.200140000000005 1.667388640918116 0.000005242652648 -0.000667495243132
-72.000799999999998 1.667255997644103 0.000005246968751 -0.000667880495791
-71.799549999999996 1.667122650831862 0.000005251273518 -0.000665098543430
-71.600200000000001 1.666991115498197 0.000005255484983 -0.000659172752794
-71.400850000000005 1.666860128691335 0.000005259643231 -0.000659529329103
-71.199600000000004 1.666728451347588 0.000005263786317 -0.000656790787698
-71.000249999999994 1.666598555192226 0.000005267835284 -0.000650961597720
-70.800899999999999 1.666469199381680 0.000005271828639 -0.000651328527678
-70.599649999999997 1.666339157092793 0.000005275802758 -0.000648609870142
-70.400300000000001 1.666210884014797 0.000005279681850 -0.000642847742505
-70.200940000000003 1.666083136550863 0.000005283502825 -0.000643231630787
-69.999690000000001 1.665954710585520 0.000005287300328 -0.000640566057150
-69.800330000000002 1.665828024712942 0.000005291001806 -0.000637891138838
-69.599080000000001 1.665700664060566 0.000005294676828 -0.000635240515242
-69.399720000000002 1.665575033825342 0.000005298255251 -0.000629618011749
-69.200360000000003 1.665449912391207 0.000005301770964 -0.000630021379487
-68.999110000000002 1.665324121510747 0.000005305255595 -0.000627429313764
-68.799750000000003 1.665200032392707 0.000005308642449 -0.000621870745042
-68.600380000000001 1.665076455267827 0.000005311963754 -0.000622269713412
-68.399119999999996 1.664952207256643 0.000005315249165 -0.000619743368641
-68.199759999999998 1.664829636273832 0.000005318435606 -0.000614281356294
-68.000389999999996 1.664707563563686 0.000005321553354 -0.000614667926719
-67.799130000000005 1.664584838625337 0.000005324630054 -0.000612183633966
-67.599760000000003 1.664463755309622 0.000005327606648 -0.000606834681879
-67.400390000000002 1.664343160644932 0.000005330511326 -0.000607251394865
-67.199110000000005 1.664221911369103 0.000005333369554 -0.000604807890559
-66.999740000000003 1.664102289854438 0.000005336126270 -0.000599511718157
-66.800370000000001 1.663983149832230 0.000005338807673 -0.000599957651034
-66.599090000000004 1.663863350720337 0.000005341436976 -0.000597586635246
-66.399709999999999 1.663745154978877 0.000005343963323 -0.000592387851732
-66.200329999999994 1.663627426334506 0.000005346410689 -0.000590037466439
-66.000950000000003 1.663510166657493 0.000005348777860 -0.000590523790602
-65.799660000000003 1.663392244329660 0.000005351084917 -0.000588243733908
-65.600269999999995 1.663275892708027 0.000005353286958 -0.000583169011123
-65.400880000000001 1.663159991439290 0.000005355404838 -0.000583671563792
-65.199590000000001 1.663043439671031 0.000005357456147 -0.000581435490161
-65.000200000000007 1.662928428940979 0.000005359400881 -0.000576483046450
-64.800799999999995 1.662813849532952 0.000005361257319 -0.000577035701544
-64.599500000000006 1.662698618702482 0.000005363040373 -0.000574862861816
-64.400099999999995 1.662584904649605 0.000005364714947 -0.000569990876596
-64.200689999999994 1.662471614135969 0.000005366296891 -0.000570598899777
-63.999380000000002 1.662357657931780 0.000005367798380 -0.000568533294924
-63.799970000000002 1.662245190065933 0.000005369189490 -0.000563776167334
-63.600560000000002 1.662133128435377 0.000005370483262 -0.000564401206247
-63.399250000000002 1.662020411641533 0.000005371689006 -0.000562409235977
-63.199820000000003 1.661909143333057 0.000005372782342 -0.000557795534588
-63.000399999999999 1.661798263991928 0.000005373773398 -0.000558494306626
-62.799070000000000 1.661686717390500 0.000005374668445 -0.000556579113089
-62.599649999999997 1.661576600794349 0.000005375448850 -0.000552052070378
-62.400219999999997 1.661466857132952 0.000005376121824 -0.000550233743571
-62.200780000000002 1.661357464703635 0.000005376685505 -0.000551062892220
-61.999440000000000 1.661247390825496 0.000005377141846 -0.000549281561722
-61.799999999999997 1.661138707828863 0.000005377480318 -0.000544929974262
-61.600560000000002 1.661030367013947 0.000005377703893 -0.000545836579288
-61.399209999999997 1.660921322952796 0.000005377811044 -0.000544196044639
-61.199750000000002 1.660813635497209 0.000005377797732 -0.000539985261008
-61.000300000000003 1.660706268422747 0.000005377663470 -0.000538385229782
-60.800849999999997 1.660599218195596 0.000005377406214 -0.000539422711741
-60.599480000000000 1.660491437933569 0.000005377019580 -0.000537973594511
-60.400010000000002 1.660384964831845 0.000005376508717 -0.000533982910811
-60.200539999999997 1.660278773899510 0.000005375868368 -0.000535119649374
-59.999180000000003 1.660171848080286 0.000005375088289 -0.000533765134768
-59.799700000000001 1.660066196596937 0.000005374180849 -0.000529959478748
-59.600220000000000 1.659960786418280 0.000005373136988 -0.000528744397622
-59.400730000000003 1.659855618853140 0.000005371954331 -0.000530056629506
-59.199350000000003 1.659749686065012 0.000005370617146 -0.000528907648055
-58.999859999999998 1.659644976093225 0.000005369148172 -0.000525354749049
-58.800359999999998 1.659540458282656 0.000005367532819 -0.000524387857496
-58.600859999999997 1.659436133385099 0.000005365768607 -0.000525931353225
-58.399470000000001 1.659331000861921 0.000005363833891 -0.000525044560523
-58.199970000000000 1.659227029138425 0.000005361762450 -0.000521754023122
-58.000450000000001 1.659123207104672 0.000005359533886 -0.000521034645394
-57.800939999999997 1.659019521880550 0.000005357145454 -0.000522850838280
-57.599530000000001 1.658914976529819 0.000005354569224 -0.000522254473334
-57.400010000000002 1.658811528814000 0.000005351850838 -0.000519251268794
-57.200490000000002 1.658708179519509 0.000005348963638 -0.000521312301718
-56.999060000000000 1.658603910976718 0.000005345874654 -0.000521001954589
-56.799529999999997 1.658500685281074 0.000005342639082 -0.000518272427520
-56.600000000000001 1.658397503799734 0.000005339225383 -0.000518090189647
-56.400469999999999 1.658294350682146 0.000005335630239 -0.000518039438402
-56.200930000000000 1.658191189412996 0.000005331850160 -0.000520572016133
-55.999479999999998 1.658087027671001 0.000005327843228 -0.000520704032833
-55.799939999999999 1.657983813824880 0.000005323681511 -0.000518462111030
-55.600400000000000 1.657880544950662 0.000005319324540 -0.000518814712887
-55.400840000000002 1.657777190677326 0.000005314768433 -0.000521790057829
-55.199379999999998 1.657672736842231 0.000005309963363 -0.000522399886521
-54.999830000000003 1.657569139698520 0.000005304996193 -0.000520645045707
-54.800269999999998 1.657465384746327 0.000005299818695 -0.000521494463513
-54.600709999999999 1.657361449313481 0.000005294426677 -0.000524974959859
-54.399230000000003 1.657256308218814 0.000005288761572 -0.000526114200108
-54.199660000000002 1.657151919072146 0.000005282926267 -0.000524902342834
-54.000090000000000 1.657047260611757 0.000005276864125 -0.000526313642111
-53.800519999999999 1.656942309401039 0.000005270570660 -0.000527918062392
-53.600940000000001 1.656837011964229 0.000005264041274 -0.000532242823582
-53.399450000000002 1.656730338374119 0.000005257206054 -0.000534180874697
-53.199869999999997 1.656624269089072 0.000005250189273 -0.000533763804641
-53.000290000000000 1.656517761601283 0.000005242922851 -0.000536065408290
-52.800690000000003 1.656410775679566 0.000005235401502 -0.000541159172283
-52.599200000000003 1.656302239549330 0.000005227545254 -0.000543895115527
-52.399600000000000 1.656194164010856 0.000005219497236 -0.000544247418328
-52.200009999999999 1.656085487572506 0.000005211179354 -0.000547386435561
-52.000399999999999 1.655976161889030 0.000005202586017 -0.000550784627376
-51.800800000000002 1.655866132086808 0.000005193711823 -0.000557092262687
-51.599290000000003 1.655754294324492 0.000005184462761 -0.000561013505735
-51.399690000000000 1.655642702848014 0.000005175007606 -0.000562545526021
-51.200080000000000 1.655530254943299 0.000005165254462 -0.000566986868664
-51.000459999999997 1.655416894657700 0.000005155197077 -0.000571718786856
-50.800840000000001 1.655302562219246 0.000005144829702 -0.000579539598932
-50.599330000000002 1.655186087217029 0.000005134042797 -0.000584924775857
-50.399709999999999 1.655069610078013 0.000005123033395 -0.000587896116805
-50.200080000000000 1.654951951709550 0.000005111694124 -0.000593992183816
-50.000459999999997 1.654833046750886 0.000005100018790 -0.000600433148057
-49.800829999999998 1.654712823204005 0.000005088000489 -0.000610175157473
-49.599299999999999 1.654590038392671 0.000005075512658 -0.000617436019617
-49.399670000000000 1.654466923134833 0.000005062783224 -0.000622225670797
-49.200040000000001 1.654342230797020 0.000005049688850 -0.000630353715556
-49.000399999999999 1.654215878464075 0.000005036222103 -0.000638934284688
-48.800770000000000 1.654087768828800 0.000005022375213 -0.000651140498143
-48.599229999999999 1.653956555249285 0.000005008002534 -0.000660794874871
-48.399580000000000 1.653824600661934 0.000004993366815 -0.000667873361633
-48.199939999999998 1.653690568004281 0.000004978326340 -0.000678605103152
-48.000300000000003 1.653554339393553 0.000004962872541 -0.000689947583909
-47.800649999999997 1.653415789479513 0.000004946996584 -0.000705322307304
-47.599100000000000 1.653273437731446 0.000004930531457 -0.000718017381792
-47.399450000000002 1.653129831877041 0.000004913779091 -0.000728026595902
-47.199800000000003 1.652983493859362 0.000004896576759 -0.000742138424456
-47.000149999999998 1.652834267828117 0.000004878914759 -0.000757017236296
